time,luminosity,radius,temperature
0.43252999999094754,1.8862905695426055e+41,157204511836498.56,10173.524012590098
0.47992476237214116,2.123516399371631e+41,169102710878265.88,10104.061098745193
0.5273195247533348,2.360742229200657e+41,181000909920033.16,10034.598184900287
0.5747142871345283,2.597968059029682e+41,192899108961800.44,9965.135271055384
0.622109049515722,2.8351938888587078e+41,204797308003567.75,9895.672357210478
0.6695038118969155,3.072419718687733e+41,216695507045335.03,9826.209443365573
0.7168985742781091,3.3096455485167583e+41,228593706087102.3,9756.746529520668
0.7642933366593028,3.546871378345784e+41,240491905128869.62,9687.283615675762
0.8116880990404963,3.78409720817481e+41,252390104170636.9,9617.820701830859
0.8590828614216899,4.0213230380038346e+41,264288303212404.2,9548.357787985953
0.9064776238028835,4.258548867832861e+41,276186502254171.5,9478.894874141048
0.9538723861840771,4.495774697661886e+41,288084701295938.75,9409.431960296142
1.0012671485652707,4.733000527490911e+41,299982900337706.06,9339.969046451239
1.0486619109464643,4.970226357319937e+41,311881099379473.4,9270.506132606333
1.096056673327658,5.207452187148963e+41,323779298421240.7,9201.043218761428
1.1434514357088514,5.444678016977988e+41,335677497463007.94,9131.580304916522
1.190846198090045,5.681903846807014e+41,347575696504775.25,9062.117391071617
1.2382409604712388,5.919129676636039e+41,359473895546542.56,8992.654477226713
1.2856357228524322,6.1563555064650645e+41,371372094588309.8,8923.191563381808
1.3330304852336259,6.39358133629409e+41,383270293630077.1,8853.728649536903
1.3804252476148196,6.613799930379003e+41,393563845837420.8,8798.452704720276
1.427820009996013,6.701907800623192e+41,392870515797670.56,8835.348146438137
1.4752147723772067,6.743503838032292e+41,393137727040568.94,8845.778936804072
1.5226095347584003,6.785099875441391e+41,393404938283467.3,8856.209727170006
1.5700042971395938,6.82669591285049e+41,393672149526365.6,8866.640517535941
1.6173990595207874,6.8682919502595905e+41,393939360769264.0,8877.071307901877
1.664793821901981,6.90988798766869e+41,394206572012162.3,8887.502098267812
1.7121885842831748,6.951484025077789e+41,394473783255060.7,8897.932888633748
1.7595833466643682,6.99308006248689e+41,394740994497959.06,8908.363678999684
1.8069781090455619,7.034676099895989e+41,395008205740857.4,8918.794469365619
1.8543728714267556,7.050346280588894e+41,397121190490784.3,8902.154450557357
1.901767633807949,7.056401451206251e+41,399918709258681.56,8875.474798119532
1.9491623961891427,7.062456621823609e+41,402716228026578.8,8848.795145681708
1.9965571585703363,7.068511792440968e+41,405513746794476.06,8822.115493243882
2.04395192095153,7.074566963058325e+41,408311265562373.3,8795.435840806058
2.0913466833327234,7.080622133675683e+41,411108784330270.56,8768.756188368234
2.138741445713917,7.08667730429304e+41,413906303098167.8,8742.07653593041
2.1861362080951103,7.092732474910398e+41,416703821866065.06,8715.396883492585
2.2335309704763042,7.098787645527755e+41,419501340633962.3,8688.71723105476
2.280925732857498,7.104842816145114e+41,422298859401859.6,8662.037578616935
2.3283204952386916,7.110897986762472e+41,425096378169756.8,8635.357926179111
2.375715257619885,7.11695315737983e+41,427893896937654.06,8608.678273741287
2.4231100200010784,7.123008327997187e+41,430691415705551.3,8581.99862130346
2.4705047823822723,7.129063498614544e+41,433488934473448.56,8555.318968865637
2.517899544763466,7.135118669231902e+41,436286453241345.8,8528.639316427812
2.5652943071446592,7.14117383984926e+41,439083972009243.06,8501.959663989988
2.612689069525853,7.147229010466618e+41,441881490777140.3,8475.280011552162
2.6600838319070466,7.153284181083976e+41,444679009545037.56,8448.600359114338
2.70747859428824,7.159339351701333e+41,447476528312934.8,8421.920706676514
2.754873356669434,7.165394522318691e+41,450274047080832.06,8395.24105423869
2.8022681190506273,7.171449692936048e+41,453071565848729.3,8368.561401800865
2.8496628814318212,7.720997528198024e+41,457875220709406.75,8447.288783893486
2.8970576438130147,8.427724265825833e+41,463259053168738.25,8556.50004013364
2.944452406194208,9.134451003453644e+41,468642885628069.8,8665.711296373793
2.991847168575402,9.84117774108146e+41,474026718087401.44,8774.922552613947
3.0392419309565954,1.054790447870927e+42,479410550546733.0,8884.133808854102
3.086636693337789,1.125463121633708e+42,484794383006064.5,8993.345065094254
3.134031455718983,1.1961357953964897e+42,490178215465396.1,9102.556321334408
3.1814262181001762,1.2668084691592707e+42,495562047924727.7,9211.767577574561
3.2288209804813697,1.2900035473838006e+42,500225829375618.06,9225.811833520185
3.2762157428625636,1.2826015227443827e+42,504425571430182.9,9178.525382544916
3.323610505243757,1.2751994981049649e+42,508625313484747.6,9131.238931569647
3.3710052676249505,1.2677974734655472e+42,512825055539312.4,9083.952480594378
3.4184000300061443,1.2603954488261293e+42,517024797593877.2,9036.66602961911
3.465794792387338,1.2529934241867114e+42,521224539648441.94,8989.37957864384
3.5131895547685312,1.2455913995472936e+42,525424281703006.7,8942.093127668571
3.560584317149725,1.2381893749078757e+42,529624023757571.5,8894.806676693303
3.6079790795309186,1.230787350268458e+42,533823765812136.25,8847.520225718035
3.655373841912112,1.2233853256290401e+42,538023507866701.0,8800.233774742766
3.702768604293306,1.2159833009896223e+42,542223249921265.75,8752.947323767497
3.7501633666744993,1.2085812763502044e+42,546422991975830.56,8705.660872792228
3.797558129055693,1.2011792517107867e+42,550622734030395.3,8658.37442181696
3.8449528914368867,1.1937772270713688e+42,554822476084960.1,8611.08797084169
3.89234765381808,1.186375202431951e+42,559022218139524.9,8563.801519866422
3.9397424161992736,1.1789731777925333e+42,563221960194089.6,8516.515068891154
3.9871371785804675,1.1715711531531154e+42,567421702248654.4,8469.228617915885
4.034531940961661,1.1641691285136975e+42,571621444303219.1,8421.942166940617
4.081926703342854,1.1567671038742797e+42,575821186357783.9,8374.655715965348
4.129321465724049,1.1493650792348618e+42,580020928412348.8,8327.369264990079
4.176716228105242,1.141963054595444e+42,584220670466913.5,8280.08281401481
4.224110990486436,1.1369637062997599e+42,585172940394072.6,8262.270453106732
4.271505752867629,1.1342846014607747e+42,582989154991067.8,8272.920962280557
4.3189005152488225,1.1316054966217895e+42,580805369588062.9,8283.571471454381
4.366295277630016,1.1289263917828041e+42,578621584185058.0,8294.221980628206
4.413690040011209,1.1243012402092133e+42,576399206550148.2,8301.086431261238
4.461084802392404,1.1078356075760203e+42,573942019245567.8,8284.915076203872
4.508479564773597,1.0913699749428278e+42,571484831940987.2,8268.743721146506
4.555874327154791,1.0749043423096351e+42,569027644636406.9,8252.57236608914
4.603269089535984,1.0584387096764426e+42,566570457331826.4,8236.401011031774
4.6506638519171775,1.04197307704325e+42,564113270027245.9,8220.22965597441
4.698058614298371,1.0255074444100574e+42,561656082722665.44,8204.058300917044
4.745453376679565,1.0090418117768644e+42,559198895418084.94,8187.886945859677
4.792848139060759,9.925761791436718e+41,556741708113504.5,8171.715590802312
4.840242901441952,9.761105465104792e+41,554284520808924.0,8155.5442357449465
4.887637663823146,9.596449138772866e+41,551827333504343.56,8139.372880687581
4.935032426204339,9.43179281244094e+41,549370146199763.1,8123.201525630215
4.9824271885855325,9.267136486109014e+41,546912958895182.6,8107.03017057285
5.029821950966727,9.102480159777085e+41,544455771590602.1,8090.858815515483
5.07721671334792,8.937823833445159e+41,541998584286021.7,8074.687460458118
5.124611475729114,8.773167507113233e+41,539541396981441.2,8058.516105400752
5.172006238110307,8.608511180781307e+41,537084209676860.75,8042.344750343386
5.219401000491501,8.479824227686613e+41,538745790868316.56,8004.089793994676
5.266795762872695,8.40303759127455e+41,546350355493953.56,7933.970343011749
5.314190525253888,8.326250954862489e+41,553954920119590.4,7863.850892028824
5.361585287635082,8.249464318450429e+41,561559484745227.2,7793.7314410458985
5.408980050016275,8.172677682038368e+41,569164049370864.0,7723.611990062973
5.456374812397469,8.095891045626307e+41,576768613996500.9,7653.492539080048
5.503769574778662,8.019104409214247e+41,584373178622137.6,7583.3730880971225
5.5511643371598565,7.942317772802184e+41,591977743247774.6,7513.253637114196
5.59855909954105,7.860220160522114e+41,599358715600744.8,7444.383484639952
5.645953861922243,7.756538581858504e+41,605831002202396.2,7380.590519048972
5.693348624303437,7.652857003194894e+41,612303288804047.6,7316.797553457992
5.74074338668463,7.549175424531283e+41,618775575405699.0,7253.004587867013
5.788138149065824,7.437310728386384e+41,628508023388379.6,7176.265230995616
5.835532911447018,7.324201479413319e+41,638736302339674.8,7097.556885176005
5.8829276738282115,7.211092230440255e+41,648964581290969.9,7018.848539356398
5.930322436209405,7.097982981467191e+41,659192860242264.9,6940.140193536789
5.977717198590598,6.984873732494126e+41,669421139193559.9,6861.431847717181
6.025111960971792,6.871764483521063e+41,679649418144855.0,6782.7235018975725
6.072506723352985,6.758655234547999e+41,689877697096150.0,6704.015156077964
6.11990148573418,6.645545985574933e+41,700105976047445.2,6625.306810258355
6.167296248115373,6.5324367366018695e+41,710334254998740.2,6546.598464438746
6.2146910104965665,6.419327487628806e+41,720562533950035.2,6467.890118619138
6.26208577287776,6.3062182386557415e+41,730790812901330.2,6389.181772799529
6.309480535258953,6.193108989682678e+41,741019091852625.4,6310.473426979921
6.356875297640147,6.1322192459370984e+41,745299819946928.6,6273.853253008266
6.404270060021341,6.111855113595256e+41,744964875529889.0,6269.896140273472
6.451664822402535,6.0914909812534135e+41,744629931112849.4,6265.939027538679
6.499059584783728,6.071126848911572e+41,744294986695809.8,6261.981914803885
6.5464543471649215,6.05076271656973e+41,743960042278770.1,6258.0248020690915
6.593849109546115,6.0303985842278885e+41,743625097861730.5,6254.067689334298
6.641243871927309,6.010034451886046e+41,743290153444691.0,6250.1105765995035
6.688638634308503,5.989670319544204e+41,742955209027651.4,6246.15346386471
6.736033396689696,5.969306187202362e+41,742620264610611.8,6242.196351129916
6.78342815907089,5.94894205486052e+41,742285320193572.1,6238.239238395123
6.830822921452083,5.9285779225186786e+41,741950375776532.5,6234.282125660329
6.8782176838332765,5.908213790176836e+41,741615431359492.9,6230.325012925535
6.925612446214471,5.887849657834994e+41,741280486942453.2,6226.367900190741
6.973007208595664,5.867485525493152e+41,740945542525413.8,6222.410787455948
7.020401970976858,5.84712139315131e+41,740610598108374.1,6218.453674721154
7.067796733358051,5.826757260809469e+41,740275653691334.5,6214.496561986361
7.115191495739245,5.806393128467626e+41,739940709274294.9,6210.539449251567
7.162586258120438,5.7860289961257845e+41,739605764857255.2,6206.582336516773
7.209981020501632,5.765664863783942e+41,739270820440215.6,6202.625223781979
7.257375782882826,5.7453007314421004e+41,738935876023176.1,6198.668111047185
7.304770545264019,5.724936599100259e+41,738600931606136.5,6194.710998312392
7.352165307645213,5.704572466758416e+41,738265987189096.9,6190.753885577598
7.399560070026406,5.700993292928442e+41,739316711848207.0,6185.9223062118135
7.4469548324076,5.7272323156320235e+41,742829054319114.9,6179.537251581464
7.494349594788794,5.7534713383356055e+41,746341396790022.9,6173.152196951115
7.541744357169987,5.779710361039186e+41,749853739260930.8,6166.767142320766
7.589139119551181,5.805949383742767e+41,753366081731838.6,6160.3820876904165
7.636533881932374,5.8321884064463484e+41,756878424202746.5,6153.997033060067
7.683928644313568,5.85842742914993e+41,760390766673654.5,6147.611978429719
7.731323406694761,5.884666451853511e+41,763903109144562.4,6141.22692379937
7.7787181690759555,5.910905474557092e+41,767415451615470.4,6134.84186916902
7.826112931457149,5.937144497260673e+41,770927794086378.2,6128.456814538671
7.873507693838342,5.9633835199642545e+41,774440136557286.1,6122.071759908322
7.920902456219536,5.989622542667836e+41,777952479028194.0,6115.686705277973
7.968297218600729,6.015861565371417e+41,781464821499102.0,6109.301650647623
8.015691980981924,6.042100588074998e+41,784977163970009.9,6102.916596017274
8.063086743363117,6.0683396107785794e+41,788489506440917.9,6096.531541386926
8.11048150574431,6.094578633482161e+41,792001848911825.8,6090.146486756576
8.157876268125504,6.120817656185742e+41,795514191382733.6,6083.761432126227
8.205271030506697,6.147056678889322e+41,799026533853641.5,6077.376377495878
8.25266579288789,6.1732957015929036e+41,802538876324549.5,6070.991322865529
8.300060555269084,6.199534724296485e+41,806051218795457.4,6064.606268235179
8.34745531765028,6.225773747000067e+41,809563561266365.4,6058.22121360483
8.394850080031471,6.252012769703647e+41,813075903737273.1,6051.836158974482
8.442244842412666,6.278251792407229e+41,816588246208181.2,6045.451104344133
8.48963960479386,6.3044908151108105e+41,820100588679089.1,6039.066049713783
8.537034367175053,6.330729837814392e+41,823612931149997.0,6032.680995083434
8.584429129556247,6.356968860517972e+41,827125273620904.9,6026.295940453085
8.63182389193744,6.3832078832215534e+41,830637616091812.8,6019.9108858227355
8.679218654318634,6.409446905925135e+41,834149958562720.8,6013.525831192386
8.726613416699827,6.435685928628716e+41,837662301033628.6,6007.140776562038
8.77400817908102,6.461924951332297e+41,841174643504536.5,6000.755721931689
8.821402941462214,6.488163974035878e+41,844686985975444.5,5994.370667301339
8.868797703843407,6.5144029967394595e+41,848199328446352.4,5987.98561267099
8.9161924662246,6.54064201944304e+41,851711670917260.2,5981.600558040641
8.963587228605794,6.566881042146621e+41,855224013388168.1,5975.215503410292
9.01098199098699,6.593120064850203e+41,858736355859076.2,5968.830448779942
9.058376753368183,6.6193590875537844e+41,862248698329984.1,5962.445394149593
9.105771515749376,6.645598110257366e+41,865761040800892.0,5956.060339519245
9.15316627813057,6.671837132960947e+41,869273383271799.9,5949.6752848888955
9.200561040511763,6.698076155664528e+41,872785725742707.8,5943.290230258546
9.247955802892957,6.724315178368109e+41,876298068213615.8,5936.905175628197
9.29535056527415,6.7505542010716906e+41,879810410684523.6,5930.520120997848
9.342745327655344,6.776793223775271e+41,883322753155431.5,5924.135066367498
9.390140090036537,6.803032246478852e+41,886835095626339.5,5917.750011737149
9.43753485241773,6.8292712691824335e+41,890347438097247.4,5911.364957106801
9.484929614798924,6.855510291886015e+41,893859780568155.2,5904.979902476452
9.532324377180117,6.881749314589595e+41,897372123039063.1,5898.594847846102
9.579719139561313,6.907988337293178e+41,900884465509971.2,5892.209793215753
9.627113901942506,6.934227359996759e+41,904396807980879.1,5885.824738585404
9.6745086643237,6.9604663827003404e+41,907909150451787.0,5879.4396839550545
9.721903426704893,6.986705405403922e+41,911421492922694.9,5873.054629324705
9.769298189086086,7.012944428107503e+41,914933835393602.8,5866.669574694357
9.81669295146728,7.039183450811083e+41,918446177864510.8,5860.284520064008
9.864087713848473,7.065422473514664e+41,921958520335418.6,5853.899465433658
9.911482476229667,7.091661496218245e+41,925470862806326.5,5847.514410803309
9.95887723861086,7.117900518921826e+41,928983205277234.5,5841.12935617296
10.006272000992054,7.144139541625407e+41,932495547748142.4,5834.744301542611
10.053666763373247,7.170378564328989e+41,936007890219050.2,5828.359246912261
10.101061525754442,7.196617587032571e+41,939520232689958.2,5821.974192281912
10.148456288135636,7.222856609736153e+41,943032575160866.2,5815.589137651563
10.19585105051683,7.249095632439732e+41,946544917631774.1,5809.2040830212145
10.243245812898023,7.275334655143314e+41,950057260102682.0,5802.819028390865
10.290640575279216,7.301573677846895e+41,953569602573589.9,5796.433973760516
10.33803533766041,7.327812700550476e+41,957081945044497.8,5790.048919130167
10.385430100041603,7.354051723254057e+41,960594287515405.8,5783.6638644998175
10.432824862422796,7.374397303360452e+41,962334416455131.6,5781.876646762622
10.48021962480399,7.38783815551475e+41,961998228861007.0,5785.476231796781
10.527614387185183,7.401279007669047e+41,961662041266882.4,5789.0758168309385
10.575009149566377,7.414719859823345e+41,961325853672757.8,5792.675401865096
10.62240391194757,7.428160711977643e+41,960989666078633.1,5796.274986899255
10.669798674328765,7.44160156413194e+41,960653478484508.5,5799.874571933413
10.717193436709959,7.455042416286239e+41,960317290890383.9,5803.474156967572
10.764588199091152,7.468483268440537e+41,959981103296259.2,5807.073742001729
10.811982961472346,7.481924120594834e+41,959644915702134.6,5810.673327035888
10.85937772385354,7.495364972749132e+41,959308728108010.0,5814.272912070046
10.906772486234733,7.508805824903429e+41,958972540513885.4,5817.872497104205
10.954167248615926,7.522246677057727e+41,958636352919760.9,5821.472082138363
11.00156201099712,7.535687529212024e+41,958300165325636.2,5825.071667172521
11.048956773378313,7.549128381366323e+41,957963977731511.6,5828.671252206679
11.096351535759506,7.56256923352062e+41,957627790137387.0,5832.270837240838
11.1437462981407,7.576010085674918e+41,957291602543262.4,5835.870422274996
11.191141060521895,7.589450937829216e+41,956955414949137.8,5839.470007309154
11.238535822903089,7.602891789983513e+41,956619227355013.1,5843.069592343312
11.285930585284282,7.616332642137811e+41,956283039760888.5,5846.669177377471
11.333325347665475,7.629773494292108e+41,955946852166763.9,5850.268762411629
11.380720110046669,7.643214346446406e+41,955610664572639.2,5853.868347445788
11.428114872427862,7.656655198600705e+41,955274476978514.6,5857.467932479945
11.475509634809056,7.670096050755002e+41,954938289384390.0,5861.067517514103
11.52290439719025,7.6835369029093e+41,954602101790265.4,5864.667102548262
11.570299159571443,7.696977755063597e+41,954265914196140.8,5868.26668758242
11.617693921952636,7.710418607217895e+41,953929726602016.1,5871.8662726165785
11.66508868433383,7.723859459372192e+41,953593539007891.5,5875.465857650736
11.712483446715023,7.73730031152649e+41,953257351413766.9,5879.065442684895
11.759878209096218,7.750741163680789e+41,952921163819642.2,5882.665027719053
11.807272971477412,7.764182015835085e+41,952584976225517.6,5886.264612753212
11.854667733858605,7.777622867989384e+41,952248788631393.1,5889.864197787369
11.902062496239799,7.79106372014368e+41,951912601037268.5,5893.463782821528
11.949457258620992,7.804504572297979e+41,951576413443143.9,5897.063367855686
11.996852021002185,7.817945424452276e+41,951240225849019.2,5900.662952889845
12.044246783383379,7.831386276606574e+41,950904038254894.6,5904.262537924003
12.091641545764572,7.844827128760873e+41,950567850660770.0,5907.862122958161
12.139036308145766,7.85826798091517e+41,950231663066645.4,5911.461707992319
12.18643107052696,7.871708833069468e+41,949895475472520.8,5915.061293026477
12.233825832908153,7.885149685223765e+41,949559287878396.1,5918.660878060636
12.281220595289346,7.898590537378063e+41,949223100284271.5,5922.2604630947935
12.328615357670541,7.912031389532361e+41,948886912690146.9,5925.860048128952
12.376010120051735,7.925472241686658e+41,948550725096022.2,5929.45963316311
12.423404882432928,7.938913093840956e+41,948214537501897.6,5933.059218197269
12.470799644814122,7.952353945995253e+41,947878349907773.0,5936.658803231427
12.518194407195315,7.965794798149552e+41,947542162313648.4,5940.258388265585
12.565589169576509,7.979235650303848e+41,947205974719523.8,5943.857973299743
12.612983931957702,8.011979809777831e+41,953686988435603.9,5931.83837680634
12.660378694338895,8.062039223726163e+41,966283098053860.6,5905.808222518265
12.707773456720089,8.112098637674494e+41,978879207672117.5,5879.778068230189
